,date,price
0,2022-05-01,112.31
1,2022-04-30,112.31
2,2022-04-29,112.31
3,2022-04-28,112.31
4,2022-04-27,112.31
5,2022-04-26,112.31
6,2022-04-25,112.31
7,2022-04-24,112.31
8,2022-04-23,112.31
9,2022-04-22,112.31
10,2022-04-21,112.31
11,2022-04-20,112.31
12,2022-04-19,112.31
13,2022-04-18,112.31
14,2022-04-17,112.31
15,2022-04-16,112.31
16,2022-04-15,112.31
17,2022-04-14,112.31
18,2022-04-13,112.31
19,2022-04-12,112.31
20,2022-04-11,112.31
21,2022-04-10,112.31
22,2022-04-09,112.31
23,2022-04-08,112.31
24,2022-04-07,112.31
25,2022-04-06,112.31
26,2022-04-05,111.55
27,2022-04-04,110.8
28,2022-04-03,110.42
29,2022-04-02,109.66
30,2022-04-01,108.91
31,2022-03-31,108.91
32,2022-03-30,108.15
33,2022-03-29,107.4
34,2022-03-28,106.64
35,2022-03-27,106.36
36,2022-03-26,105.89
37,2022-03-25,105.16
38,2022-03-24,104.41
39,2022-03-23,104.41
40,2022-03-22,103.65
41,2022-03-21,102.89
42,2022-03-20,102.89
43,2022-03-19,102.89
44,2022-03-18,102.89
45,2022-03-17,102.89
46,2022-03-16,102.89
47,2022-03-15,102.89
48,2022-03-14,102.89
49,2022-03-13,102.89
50,2022-03-12,102.89
51,2022-03-11,102.89
52,2022-03-10,102.89
53,2022-03-09,102.89
54,2022-03-08,102.89
55,2022-03-07,102.89
56,2022-03-06,102.89
57,2022-03-05,102.89
58,2022-03-04,102.89
59,2022-03-03,102.89
60,2022-03-02,102.89
61,2022-03-01,102.89
62,2022-02-28,102.89
63,2022-02-27,102.89
64,2022-02-26,102.89
65,2022-02-25,102.89
66,2022-02-24,102.89
67,2022-02-23,102.89
68,2022-02-22,102.89
69,2022-02-21,102.89
70,2022-02-20,102.89
71,2022-02-19,102.89
72,2022-02-18,102.89
73,2022-02-17,102.89
74,2022-02-16,102.89
75,2022-02-15,102.89
76,2022-02-14,102.89
77,2022-02-13,102.89
78,2022-02-12,102.89
79,2022-02-11,102.89
80,2022-02-10,102.89
81,2022-02-09,102.89
82,2022-02-08,102.89
83,2022-02-07,102.89
84,2022-02-06,102.89
85,2022-02-05,102.89
86,2022-02-04,102.89
87,2022-02-03,102.89
88,2022-02-02,102.89
89,2022-02-01,102.89
90,2022-01-31,102.89
91,2022-01-30,102.89
92,2022-01-29,102.89
93,2022-01-28,102.89
94,2022-01-27,102.89
95,2022-01-26,102.89
96,2022-01-25,102.89
97,2022-01-24,102.89
98,2022-01-23,102.89
99,2022-01-22,102.89
100,2022-01-21,102.89
101,2022-01-20,102.89
102,2022-01-19,102.89
103,2022-01-18,102.89
104,2022-01-17,102.89
105,2022-01-16,102.89
106,2022-01-15,102.89
107,2022-01-14,102.89
108,2022-01-13,102.89
109,2022-01-12,102.89
110,2022-01-11,102.89
111,2022-01-10,102.89
112,2022-01-09,102.89
113,2022-01-08,102.89
114,2022-01-07,102.89
115,2022-01-06,102.89
116,2022-01-05,102.89
117,2022-01-04,102.89
118,2022-01-03,102.89
119,2022-01-02,102.89
120,2022-01-01,102.89
121,2021-12-31,102.89
122,2021-12-30,102.89
123,2021-12-29,102.89
124,2021-12-28,102.89
125,2021-12-27,102.89
126,2021-12-26,102.89
127,2021-12-25,102.89
128,2021-12-24,102.89
129,2021-12-23,102.89
130,2021-12-22,102.89
131,2021-12-21,102.89
132,2021-12-20,102.89
133,2021-12-19,102.89
134,2021-12-18,102.89
135,2021-12-17,102.89
136,2021-12-16,102.89
137,2021-12-15,102.89
138,2021-12-14,102.89
139,2021-12-13,102.89
140,2021-12-12,102.89
141,2021-12-11,102.89
142,2021-12-10,102.89
143,2021-12-09,102.89
144,2021-12-08,102.89
145,2021-12-07,102.89
146,2021-12-06,102.89
147,2021-12-05,102.89
148,2021-12-04,102.89
149,2021-12-03,102.89
150,2021-12-02,102.89
151,2021-11-30,102.89
152,2021-11-29,102.89
153,2021-11-28,102.89
154,2021-11-27,102.89
155,2021-11-26,102.89
156,2021-11-25,102.89
157,2021-11-24,102.89
158,2021-11-23,102.89
159,2021-11-22,102.89
160,2021-11-21,102.89
161,2021-11-20,102.89
162,2021-11-19,102.89
163,2021-11-18,102.89
164,2021-11-17,102.89
165,2021-11-16,102.89
166,2021-11-15,102.89
167,2021-11-14,102.89
168,2021-11-13,102.89
169,2021-11-12,102.89
170,2021-11-11,102.89
171,2021-11-10,102.89
172,2021-11-09,102.89
173,2021-11-08,102.89
174,2021-11-07,102.89
175,2021-11-06,102.89
176,2021-11-05,102.89
177,2021-11-04,102.89
178,2021-11-03,108.16
179,2021-11-02,108.16
180,2021-11-01,107.84
181,2021-10-31,107.45
182,2021-10-30,107.15
183,2021-10-29,106.85
184,2021-10-28,106.54
185,2021-10-27,106.24
186,2021-10-26,105.94
187,2021-10-25,105.94
188,2021-10-24,105.94
189,2021-10-23,105.63
190,2021-10-22,105.33
191,2021-10-21,105.03
192,2021-10-20,104.72
193,2021-10-19,104.42
194,2021-10-18,104.42
195,2021-10-15,103.81
196,2021-10-14,103.51
197,2021-10-13,103.21
198,2021-10-12,103.21
199,2021-10-11,103.21
200,2021-10-10,102.95
201,2021-10-09,102.69
202,2021-10-08,102.43
203,2021-10-07,102.17
204,2021-10-06,101.91
205,2021-10-05,101.64
206,2021-10-04,101.43
207,2021-10-03,101.43
208,2021-10-02,101.21
209,2021-10-01,100.99
210,2021-09-30,100.79
211,2021-09-29,100.58
212,2021-09-28,100.58
213,2021-09-27,100.42
214,2021-09-26,100.42
215,2021-09-25,100.42
216,2021-09-24,100.42
217,2021-09-23,100.42
218,2021-09-22,100.42
219,2021-09-21,100.42
220,2021-09-20,100.42
221,2021-09-19,100.42
222,2021-09-18,100.42
223,2021-09-17,100.42
224,2021-09-16,100.42
225,2021-09-15,100.42
226,2021-09-14,100.42
227,2021-09-13,100.42
228,2021-09-12,100.42
229,2021-09-11,100.42
230,2021-09-10,100.42
231,2021-09-09,100.42
232,2021-09-08,100.42
233,2021-09-07,100.42
234,2021-09-06,100.42
235,2021-09-05,100.42
236,2021-09-03,100.56
237,2021-09-02,100.56
238,2021-09-01,100.56
239,2021-08-31,100.7
240,2021-08-30,100.7
241,2021-08-29,100.7
242,2021-08-28,100.7
243,2021-08-27,100.7
244,2021-08-26,100.7
245,2021-08-25,100.7
246,2021-08-24,100.7
247,2021-08-23,100.82
248,2021-08-22,100.82
249,2021-08-21,100.88
250,2021-08-20,100.88
251,2021-08-19,100.88
252,2021-08-18,103.92
253,2021-08-17,103.92
254,2021-08-16,103.92
255,2021-08-15,103.92
256,2021-08-14,103.92
257,2021-08-13,103.92
258,2021-08-12,103.92
259,2021-08-11,103.92
260,2021-08-10,103.92
261,2021-08-09,103.92
262,2021-08-08,103.92
263,2021-08-07,103.92
264,2021-08-06,103.92
265,2021-08-05,103.92
266,2021-08-04,103.92
267,2021-08-03,103.92
268,2021-08-02,103.92
269,2021-08-01,103.92
270,2021-07-31,103.92
271,2021-07-30,103.92
272,2021-07-29,103.92
273,2021-07-28,103.92
274,2021-07-27,103.92
275,2021-07-26,103.92
276,2021-07-25,103.92
277,2021-07-24,103.92
278,2021-07-23,103.92
279,2021-07-22,103.92
280,2021-07-21,103.92
281,2021-07-20,103.92
282,2021-07-19,103.92
283,2021-07-18,103.92
284,2021-07-17,103.92
285,2021-07-16,103.66
286,2021-07-15,103.66
287,2021-07-14,103.35
288,2021-07-13,103.35
289,2021-07-12,103.35
290,2021-07-11,103.1
291,2021-07-10,103.1
292,2021-07-09,102.79
293,2021-07-08,102.79
294,2021-07-07,102.48
295,2021-07-06,102.18
296,2021-07-05,102.18
297,2021-07-04,101.87
298,2021-07-03,101.56
299,2021-07-02,101.56
300,2021-07-01,101.23
301,2021-06-30,101.23
302,2021-06-29,101.23
303,2021-06-28,100.92
304,2021-06-27,100.92
305,2021-06-26,100.61
306,2021-06-25,100.3
307,2021-06-24,100.3
308,2021-06-23,100.08
309,2021-06-22,100.08
310,2021-06-21,99.83
311,2021-06-20,99.83
312,2021-06-19,99.57
313,2021-06-18,99.57
314,2021-06-17,99.33
315,2021-06-16,99.33
316,2021-06-15,99.11
317,2021-06-14,99.11
318,2021-06-13,98.86
319,2021-06-12,98.86
320,2021-06-11,98.62
321,2021-06-10,98.36
322,2021-06-09,98.36
323,2021-06-08,98.14
324,2021-06-07,98.14
325,2021-06-06,97.9
326,2021-06-05,97.66
327,2021-06-04,97.66
328,2021-06-03,97.42
329,2021-06-02,97.42
330,2021-06-01,97.42
331,2021-05-31,97.19
332,2021-05-30,96.93
333,2021-05-29,96.93
334,2021-05-28,96.7
335,2021-05-27,96.7
336,2021-05-26,96.49
337,2021-05-25,96.49
338,2021-05-24,96.29
339,2021-05-23,96.29
340,2021-05-22,96.14
341,2021-05-21,96.14
342,2021-05-20,95.97
343,2021-05-19,95.97
344,2021-05-18,95.97
345,2021-05-17,95.73
346,2021-05-16,95.73
347,2021-05-15,95.52
348,2021-05-14,95.52
349,2021-05-13,95.27
350,2021-05-12,95.27
351,2021-05-11,95.05
352,2021-05-10,94.81
353,2021-05-09,94.58
354,2021-05-08,94.58
355,2021-05-07,94.58
356,2021-05-06,94.33
357,2021-05-05,94.11
358,2021-05-04,93.94
359,2021-05-03,93.71
360,2021-05-02,93.71
361,2021-05-01,93.71
362,2021-04-30,93.71
363,2021-04-29,93.71
364,2021-04-28,93.71
